freq,psd_x,psd_y,psd_z,psd_xyz
0.0,4.558e+02,8.584e+00,1.454e+01,4.790e+02
1.6,2.659e+02,2.605e+01,3.242e+01,3.244e+02
3.1,3.736e+01,2.579e+01,3.279e+01,9.594e+01
4.7,3.772e+02,2.575e+01,3.273e+01,4.357e+02
6.3,1.242e+03,2.320e+01,3.212e+01,1.298e+03
7.8,1.916e+03,2.629e+01,3.536e+01,1.978e+03
9.4,2.678e+03,2.727e+01,3.632e+01,2.742e+03
11.0,3.642e+03,2.666e+01,3.819e+01,3.707e+03
12.5,4.857e+03,2.642e+01,3.499e+01,4.918e+03
14.1,6.312e+03,2.883e+01,3.645e+01,6.378e+03
15.7,7.958e+03,2.955e+01,3.524e+01,8.023e+03
17.2,9.896e+03,3.149e+01,3.296e+01,9.961e+03
18.8,1.191e+04,3.061e+01,3.433e+01,1.197e+04
20.4,1.415e+04,2.681e+01,3.734e+01,1.422e+04
21.9,1.694e+04,3.214e+01,4.239e+01,1.702e+04
23.5,2.016e+04,3.855e+01,4.567e+01,2.025e+04
25.1,2.390e+04,4.108e+01,5.466e+01,2.399e+04
26.6,2.858e+04,5.523e+01,6.223e+01,2.870e+04
28.2,3.216e+04,1.105e+02,7.651e+01,3.235e+04
29.8,3.633e+04,1.306e+02,8.855e+01,3.655e+04
31.3,4.408e+04,1.314e+02,1.053e+02,4.431e+04
32.9,5.348e+04,1.342e+02,1.203e+02,5.373e+04
34.5,6.645e+04,1.408e+02,1.662e+02,6.675e+04
36.0,8.509e+04,1.403e+02,2.541e+02,8.548e+04
37.6,1.112e+05,1.457e+02,4.493e+02,1.118e+05
39.2,1.438e+05,1.678e+02,8.019e+02,1.448e+05
40.7,1.965e+05,1.845e+02,1.544e+03,1.982e+05
42.3,2.900e+05,2.021e+02,3.122e+03,2.933e+05
43.9,4.367e+05,2.230e+02,6.375e+03,4.433e+05
45.4,7.318e+05,4.217e+02,1.069e+04,7.430e+05
47.0,1.192e+06,8.731e+02,1.214e+04,1.205e+06
48.6,1.402e+06,1.592e+03,1.669e+04,1.420e+06
50.1,1.079e+06,1.344e+03,1.378e+04,1.094e+06
51.7,7.240e+05,1.533e+03,9.597e+03,7.352e+05
53.3,5.161e+05,1.374e+03,6.790e+03,5.243e+05
54.8,4.182e+05,1.256e+03,4.984e+03,4.244e+05
56.4,2.502e+05,7.188e+02,2.795e+03,2.538e+05
58.0,1.294e+05,2.504e+02,2.580e+03,1.322e+05
59.5,7.719e+04,1.020e+02,3.541e+03,8.083e+04
61.1,5.011e+04,7.110e+01,4.315e+03,5.450e+04
62.7,3.606e+04,1.205e+02,5.874e+03,4.205e+04
64.2,2.694e+04,2.565e+02,7.523e+03,3.472e+04
65.8,2.277e+04,4.809e+02,8.642e+03,3.190e+04
67.4,2.235e+04,9.113e+02,8.928e+03,3.219e+04
68.9,2.238e+04,1.487e+03,8.898e+03,3.276e+04
70.5,2.133e+04,1.668e+03,8.018e+03,3.101e+04
72.1,2.010e+04,1.404e+03,6.623e+03,2.813e+04
73.6,1.794e+04,8.947e+02,5.826e+03,2.466e+04
75.2,1.838e+04,5.622e+02,6.801e+03,2.574e+04
76.8,3.399e+04,1.153e+03,9.945e+03,4.509e+04
78.3,8.331e+04,3.061e+03,1.423e+04,1.006e+05
79.9,1.768e+05,5.522e+03,1.788e+04,2.002e+05
81.5,2.721e+05,6.707e+03,1.966e+04,2.985e+05
83.0,3.155e+05,6.010e+03,1.953e+04,3.411e+05
84.6,3.648e+05,4.758e+03,1.897e+04,3.885e+05
86.2,3.991e+05,3.484e+03,1.804e+04,4.206e+05
87.7,4.284e+05,2.690e+03,1.808e+04,4.492e+05
89.3,4.617e+05,2.624e+03,1.852e+04,4.829e+05
90.9,4.741e+05,3.312e+03,1.908e+04,4.965e+05
92.5,4.667e+05,4.728e+03,1.976e+04,4.912e+05
94.0,4.488e+05,6.997e+03,1.983e+04,4.757e+05
95.6,4.416e+05,7.830e+03,1.975e+04,4.692e+05
97.2,4.571e+05,6.738e+03,1.976e+04,4.836e+05
98.7,4.520e+05,5.800e+03,1.992e+04,4.777e+05
100.3,4.380e+05,5.634e+03,2.129e+04,4.649e+05
101.9,4.358e+05,6.702e+03,2.257e+04,4.651e+05
103.4,4.200e+05,9.225e+03,2.235e+04,4.516e+05
105.0,3.700e+05,1.181e+04,2.076e+04,4.026e+05
106.6,3.714e+05,1.362e+04,1.976e+04,4.048e+05
108.1,3.933e+05,1.712e+04,1.955e+04,4.299e+05
109.7,4.165e+05,2.017e+04,1.917e+04,4.558e+05
111.3,4.033e+05,2.185e+04,1.786e+04,4.430e+05
112.8,3.457e+05,2.028e+04,1.581e+04,3.818e+05
114.4,3.110e+05,1.967e+04,1.480e+04,3.454e+05
116.0,3.150e+05,2.130e+04,1.493e+04,3.512e+05
117.5,3.064e+05,1.942e+04,1.438e+04,3.401e+05
119.1,3.255e+05,2.046e+04,1.602e+04,3.619e+05
120.7,3.356e+05,2.118e+04,1.689e+04,3.736e+05
122.2,3.515e+05,2.373e+04,1.829e+04,3.935e+05
123.8,3.929e+05,2.893e+04,2.103e+04,4.428e+05
125.4,4.226e+05,3.366e+04,2.333e+04,4.796e+05
126.9,4.412e+05,3.575e+04,2.383e+04,5.008e+05
128.5,4.499e+05,3.545e+04,2.224e+04,5.075e+05
130.1,4.754e+05,3.630e+04,2.427e+04,5.360e+05
131.6,4.816e+05,3.358e+04,2.770e+04,5.429e+05
133.2,2.618e+05,1.545e+04,1.605e+04,2.933e+05
134.8,4.698e+04,1.358e+03,2.316e+03,5.066e+04
136.3,2.923e+04,4.619e+02,1.564e+03,3.125e+04
137.9,2.676e+04,6.060e+02,2.286e+03,2.965e+04
139.5,2.405e+04,9.334e+02,2.837e+03,2.782e+04
141.0,2.182e+04,1.549e+03,2.920e+03,2.628e+04
142.6,1.871e+04,1.828e+03,2.637e+03,2.318e+04
144.2,1.493e+04,1.434e+03,1.799e+03,1.816e+04
145.7,1.074e+04,9.797e+02,9.114e+02,1.263e+04
147.3,6.636e+03,9.289e+02,4.054e+02,7.970e+03
148.9,3.983e+03,1.159e+03,3.144e+02,5.456e+03
150.4,2.865e+03,1.444e+03,4.356e+02,4.745e+03
152.0,1.709e+03,1.781e+03,5.409e+02,4.031e+03
153.6,1.444e+03,2.177e+03,7.043e+02,4.326e+03
155.1,2.404e+03,2.397e+03,9.359e+02,5.737e+03
156.7,4.096e+03,2.130e+03,1.171e+03,7.397e+03
158.3,5.888e+03,1.668e+03,1.462e+03,9.018e+03
159.8,7.031e+03,1.410e+03,1.727e+03,1.017e+04
161.4,7.095e+03,1.418e+03,1.827e+03,1.034e+04
163.0,7.472e+03,1.405e+03,1.868e+03,1.075e+04
164.5,8.824e+03,1.195e+03,1.716e+03,1.173e+04
166.1,1.065e+04,1.044e+03,1.777e+03,1.347e+04
167.7,1.170e+04,1.090e+03,1.968e+03,1.475e+04
169.2,1.152e+04,1.340e+03,2.087e+03,1.495e+04
170.8,1.122e+04,1.863e+03,2.350e+03,1.543e+04
172.4,1.219e+04,2.378e+03,2.826e+03,1.739e+04
173.9,1.158e+04,2.898e+03,2.896e+03,1.738e+04
175.5,1.076e+04,3.387e+03,2.756e+03,1.691e+04
177.1,1.035e+04,3.990e+03,2.606e+03,1.695e+04
178.6,9.998e+03,4.347e+03,2.455e+03,1.680e+04
180.2,1.035e+04,4.472e+03,2.401e+03,1.723e+04
181.8,1.111e+04,4.676e+03,2.266e+03,1.805e+04
183.3,1.194e+04,5.264e+03,2.136e+03,1.934e+04
184.9,1.272e+04,6.027e+03,2.110e+03,2.086e+04
186.5,1.364e+04,6.616e+03,2.015e+03,2.228e+04
188.0,1.401e+04,7.221e+03,1.938e+03,2.317e+04
189.6,1.405e+04,7.951e+03,1.876e+03,2.388e+04
191.2,1.389e+04,8.377e+03,1.689e+03,2.395e+04
192.7,1.388e+04,8.544e+03,1.501e+03,2.392e+04
194.3,1.411e+04,8.027e+03,1.476e+03,2.361e+04
195.9,1.402e+04,7.256e+03,1.331e+03,2.261e+04
197.4,1.387e+04,6.125e+03,1.140e+03,2.114e+04
199.0,1.314e+04,5.028e+03,1.144e+03,1.932e+04
